====================================================
绝热层数为 30 层时，热流密度为：
    q0 = 1.03934765117 W/m2 
绝热层导热系数为：
    lamda = 8.52375057834e-05 W/(m.k) 
        绝热层       前支撑       后支撑       管  路      总漏热
漏热量   94.320      27.992      29.450       3.979      155.741 
比  例  60.562%     17.973%     18.910%      2.555%   
LNG日蒸发率为：
    theta1 = 0.110%  
LN2日蒸发率为：
    theta2 = 0.182%  

层数     温度(K)     辐射导热     固体导热     气体导热     总导热(W/m2)
 0    300.00000     0.00000     1.03935     0.00000     0.00000 
 1    300.00000     0.92444     0.11176     0.00314     1.03935 
 2    297.08960     0.92137     0.11475     0.00323     1.03935 
 3    294.10120     0.91809     0.11794     0.00332     1.03935 
 4    291.02995     0.91461     0.12132     0.00341     1.03935 
 5    287.87049     0.91090     0.12494     0.00351     1.03935 
 6    284.61693     0.90692     0.12880     0.00362     1.03935 
 7    281.26277     0.90267     0.13294     0.00374     1.03935 
 8    277.80076     0.89809     0.13739     0.00386     1.03935 
 9    274.22285     0.89316     0.14219     0.00400     1.03935 
10    270.52001     0.88783     0.14738     0.00415     1.03935 
11    266.68211     0.88204     0.15300     0.00430     1.03935 
12    262.69770     0.87575     0.15913     0.00448     1.03935 
13    258.55380     0.86886     0.16582     0.00466     1.03935 
14    254.23559     0.86131     0.17317     0.00487     1.03935 
15    249.72604     0.85298     0.18127     0.00510     1.03935 
16    245.00550     0.84375     0.19025     0.00535     1.03935 
17    240.05111     0.83346     0.20026     0.00563     1.03935 
18    234.83604     0.82191     0.21149     0.00595     1.03935 
19    229.32861     0.80888     0.22416     0.00631     1.03935 
20    223.49099     0.79404     0.23859     0.00671     1.03935 
21    217.27763     0.77702     0.25515     0.00718     1.03935 
22    210.63304     0.75730     0.27434     0.00772     1.03935 
23    203.48887     0.73421     0.29679     0.00835     1.03935 
24    195.75984     0.70686     0.32339     0.00910     1.03935 
25    187.33823     0.67408     0.35528     0.00999     1.03935 
26    178.08618     0.63425     0.39402     0.01108     1.03935 
27    167.82533     0.58526     0.44167     0.01242     1.03935 
28    156.32353     0.52439     0.50087     0.01409     1.03935 
29    143.28008     0.44863     0.57455     0.01616     1.03935 
30    128.31778     0.35591     0.66474     0.01870     1.03935 
31    111.00696 
====================================================
绝热层数为 40 层时，热流密度为：
    q0 = 0.779486638543 W/m2 
绝热层导热系数为：
    lamda = 8.45474925404e-05 W/(m.k) 
        绝热层       前支撑       后支撑       管  路      总漏热
漏热量   70.738      27.992      29.450       3.979      132.159 
比  例  53.525%     21.180%     22.284%      3.011%   
LNG日蒸发率为：
    theta1 = 0.093%  
LN2日蒸发率为：
    theta2 = 0.154%  

层数     温度(K)     辐射导热     固体导热     气体导热     总导热(W/m2)
 0    300.00000     0.00000     0.77949     0.00000     0.00000 
 1    300.00000     0.69359     0.08354     0.00235     0.77949 
 2    297.82440     0.69189     0.08520     0.00240     0.77949 
 3    295.60558     0.69010     0.08694     0.00245     0.77949 
 4    293.34157     0.68823     0.08876     0.00250     0.77949 
 5    291.03023     0.68628     0.09066     0.00255     0.77949 
 6    288.66930     0.68422     0.09266     0.00261     0.77949 
 7    286.25632     0.68206     0.09476     0.00267     0.77949 
 8    283.78863     0.67979     0.09697     0.00273     0.77949 
 9    281.26340     0.67740     0.09930     0.00279     0.77949 
10    278.67753     0.67487     0.10175     0.00286     0.77949 
11    276.02766     0.67220     0.10435     0.00294     0.77949 
12    273.31016     0.66937     0.10710     0.00301     0.77949 
13    270.52106     0.66637     0.11002     0.00309     0.77949 
14    267.65601     0.66319     0.11312     0.00318     0.77949 
15    264.71029     0.65980     0.11641     0.00327     0.77949 
16    261.67865     0.65618     0.11993     0.00337     0.77949 
17    258.55537     0.65231     0.12370     0.00348     0.77949 
18    255.33409     0.64816     0.12773     0.00359     0.77949 
19    252.00777     0.64371     0.13207     0.00371     0.77949 
20    248.56857     0.63890     0.13674     0.00385     0.77949 
21    245.00774     0.63372     0.14178     0.00399     0.77949 
22    241.31546     0.62809     0.14726     0.00414     0.77949 
23    237.48067     0.62197     0.15321     0.00431     0.77949 
24    233.49085     0.61529     0.15971     0.00449     0.77949 
25    229.33176     0.60796     0.16683     0.00469     0.77949 
26    224.98712     0.59990     0.17468     0.00491     0.77949 
27    220.43822     0.59098     0.18335     0.00516     0.77949 
28    215.66342     0.58106     0.19299     0.00543     0.77949 
29    210.63751     0.56998     0.20377     0.00573     0.77949 
30    205.33097     0.55753     0.21588     0.00607     0.77949 
31    199.70897     0.54344     0.22959     0.00646     0.77949 
32    193.73009     0.52739     0.24520     0.00690     0.77949 
33    187.34477     0.50899     0.26310     0.00740     0.77949 
34    180.49324     0.48772     0.28378     0.00798     0.77949 
35    173.10301     0.46296     0.30786     0.00866     0.77949 
36    165.08574     0.43396     0.33608     0.00945     0.77949 
37    156.33373     0.39979     0.36931     0.01039     0.77949 
38    146.71638     0.35949     0.40850     0.01149     0.77949 
39    136.07828     0.31220     0.45451     0.01278     0.77949 
40    124.24221     0.25764     0.50757     0.01428     0.77949 
41    111.02423 
====================================================
绝热层数为 50 层时，热流密度为：
    q0 = 0.623595147153 W/m2 
绝热层导热系数为：
    lamda = 8.41358531873e-05 W/(m.k) 
        绝热层       前支撑       后支撑       管  路      总漏热
漏热量   56.591      27.992      29.450       3.979      118.012 
比  例  47.954%     23.719%     24.955%      3.372%   
LNG日蒸发率为：
    theta1 = 0.083%  
LN2日蒸发率为：
    theta2 = 0.138%  

层数     温度(K)     辐射导热     固体导热     气体导热     总导热(W/m2)
 0    300.00000     0.00000     0.62360     0.00000     0.00000 
 1    300.00000     0.55501     0.06670     0.00188     0.62360 
 2    298.26290     0.55393     0.06776     0.00191     0.62360 
 3    296.49839     0.55281     0.06885     0.00194     0.62360 
 4    294.70547     0.55165     0.06998     0.00197     0.62360 
 5    292.88309     0.55044     0.07115     0.00200     0.62360 
 6    291.03015     0.54919     0.07237     0.00204     0.62360 
 7    289.14546     0.54789     0.07364     0.00207     0.62360 
 8    287.22779     0.54653     0.07496     0.00211     0.62360 
 9    285.27581     0.54512     0.07633     0.00215     0.62360 
10    283.28812     0.54365     0.07776     0.00219     0.62360 
11    281.26321     0.54212     0.07925     0.00223     0.62360 
12    279.19949     0.54052     0.08080     0.00227     0.62360 
13    277.09527     0.53885     0.08243     0.00232     0.62360 
14    274.94873     0.53710     0.08413     0.00237     0.62360 
15    272.75791     0.53527     0.08591     0.00242     0.62360 
16    270.52074     0.53335     0.08777     0.00247     0.62360 
17    268.23497     0.53134     0.08973     0.00252     0.62360 
18    265.89821     0.52922     0.09179     0.00258     0.62360 
19    263.50784     0.52700     0.09396     0.00264     0.62360 
20    261.06108     0.52465     0.09624     0.00271     0.62360 
21    258.55490     0.52218     0.09865     0.00277     0.62360 
22    255.98600     0.51956     0.10119     0.00285     0.62360 
23    253.35084     0.51679     0.10388     0.00292     0.62360 
24    250.64551     0.51385     0.10674     0.00300     0.62360 
25    247.86580     0.51073     0.10978     0.00309     0.62360 
26    245.00706     0.50741     0.11301     0.00318     0.62360 
27    242.06422     0.50387     0.11645     0.00328     0.62360 
28    239.03168     0.50009     0.12013     0.00338     0.62360 
29    235.90327     0.49603     0.12407     0.00349     0.62360 
30    232.67217     0.49168     0.12831     0.00361     0.62360 
31    229.33081     0.48699     0.13287     0.00374     0.62360 
32    225.87073     0.48193     0.13779     0.00388     0.62360 
33    222.28251     0.47645     0.14311     0.00403     0.62360 
34    218.55556     0.47051     0.14890     0.00419     0.62360 
35    214.67794     0.46403     0.15520     0.00437     0.62360 
36    210.63615     0.45694     0.16210     0.00456     0.62360 
37    206.41486     0.44916     0.16966     0.00477     0.62360 
38    201.99654     0.44059     0.17800     0.00501     0.62360 
39    197.36112     0.43110     0.18723     0.00527     0.62360 
40    192.48547     0.42056     0.19748     0.00555     0.62360 
41    187.34279     0.40879     0.20893     0.00588     0.62360 
42    181.90197     0.39559     0.22177     0.00624     0.62360 
43    176.12667     0.38070     0.23625     0.00665     0.62360 
44    169.97435     0.36385     0.25264     0.00711     0.62360 
45    163.39514     0.34469     0.27128     0.00763     0.62360 
46    156.33064     0.32284     0.29253     0.00823     0.62360 
47    148.71277     0.29790     0.31678     0.00891     0.62360 
48    140.46318     0.26948     0.34442     0.00969     0.62360 
49    131.49383     0.23733     0.37569     0.01057     0.62360 
50    121.71015     0.20151     0.41054     0.01155     0.62360 
51    111.01901 
====================================================
绝热层数为 40 层时，热流密度为：
    q0 = 0.779486638543 W/m2 
绝热层导热系数为：
    lamda = 8.45474925404e-05 W/(m.k) 
        绝热层       前支撑       后支撑       管  路      总漏热
漏热量   70.738      27.992      29.450       3.979      132.159 
比  例  53.525%     21.180%     22.284%      3.011%   
LNG日蒸发率为：
    theta1 = 0.093%  
LN2日蒸发率为：
    theta2 = 0.154%  

层数     温度(K)     辐射导热     固体导热     气体导热     总导热(W/m2)
 0    300.00000     0.00000     0.00000     0.00000     0.00000 
 1    300.00000     0.69359     0.08354     0.00235     0.77949 
 2    297.82440     0.69189     0.08520     0.00240     0.77949 
 3    295.60558     0.69010     0.08694     0.00245     0.77949 
 4    293.34157     0.68823     0.08876     0.00250     0.77949 
 5    291.03023     0.68628     0.09066     0.00255     0.77949 
 6    288.66930     0.68422     0.09266     0.00261     0.77949 
 7    286.25632     0.68206     0.09476     0.00267     0.77949 
 8    283.78863     0.67979     0.09697     0.00273     0.77949 
 9    281.26340     0.67740     0.09930     0.00279     0.77949 
10    278.67753     0.67487     0.10175     0.00286     0.77949 
11    276.02766     0.67220     0.10435     0.00294     0.77949 
12    273.31016     0.66937     0.10710     0.00301     0.77949 
13    270.52106     0.66637     0.11002     0.00309     0.77949 
14    267.65601     0.66319     0.11312     0.00318     0.77949 
15    264.71029     0.65980     0.11641     0.00327     0.77949 
16    261.67865     0.65618     0.11993     0.00337     0.77949 
17    258.55537     0.65231     0.12370     0.00348     0.77949 
18    255.33409     0.64816     0.12773     0.00359     0.77949 
19    252.00777     0.64371     0.13207     0.00371     0.77949 
20    248.56857     0.63890     0.13674     0.00385     0.77949 
21    245.00774     0.63372     0.14178     0.00399     0.77949 
22    241.31546     0.62809     0.14726     0.00414     0.77949 
23    237.48067     0.62197     0.15321     0.00431     0.77949 
24    233.49085     0.61529     0.15971     0.00449     0.77949 
25    229.33176     0.60796     0.16683     0.00469     0.77949 
26    224.98712     0.59990     0.17468     0.00491     0.77949 
27    220.43822     0.59098     0.18335     0.00516     0.77949 
28    215.66342     0.58106     0.19299     0.00543     0.77949 
29    210.63751     0.56998     0.20377     0.00573     0.77949 
30    205.33097     0.55753     0.21588     0.00607     0.77949 
31    199.70897     0.54344     0.22959     0.00646     0.77949 
32    193.73009     0.52739     0.24520     0.00690     0.77949 
33    187.34477     0.50899     0.26310     0.00740     0.77949 
34    180.49324     0.48772     0.28378     0.00798     0.77949 
35    173.10301     0.46296     0.30786     0.00866     0.77949 
36    165.08574     0.43396     0.33608     0.00945     0.77949 
37    156.33373     0.39979     0.36931     0.01039     0.77949 
38    146.71638     0.35949     0.40850     0.01149     0.77949 
39    136.07828     0.31220     0.45451     0.01278     0.77949 
40    124.24221     0.25764     0.50757     0.01428     0.77949 
41    111.02423 
====================================================
绝热层数为 50 层时，热流密度为：
    q0 = 0.623595147153 W/m2 
绝热层导热系数为：
    lamda = 8.41358531873e-05 W/(m.k) 
        绝热层       前支撑       后支撑       管  路      总漏热
漏热量   56.591      27.992      29.450       3.979      118.012 
比  例  47.954%     23.719%     24.955%      3.372%   
LNG日蒸发率为：
    theta1 = 0.083%  
LN2日蒸发率为：
    theta2 = 0.138%  

层数     温度(K)     辐射导热     固体导热     气体导热     总导热(W/m2)
 0    300.00000     0.00000     0.00000     0.00000     0.00000 
 1    300.00000     0.55501     0.06670     0.00188     0.62360 
 2    298.26290     0.55393     0.06776     0.00191     0.62360 
 3    296.49839     0.55281     0.06885     0.00194     0.62360 
 4    294.70547     0.55165     0.06998     0.00197     0.62360 
 5    292.88309     0.55044     0.07115     0.00200     0.62360 
 6    291.03015     0.54919     0.07237     0.00204     0.62360 
 7    289.14546     0.54789     0.07364     0.00207     0.62360 
 8    287.22779     0.54653     0.07496     0.00211     0.62360 
 9    285.27581     0.54512     0.07633     0.00215     0.62360 
10    283.28812     0.54365     0.07776     0.00219     0.62360 
11    281.26321     0.54212     0.07925     0.00223     0.62360 
12    279.19949     0.54052     0.08080     0.00227     0.62360 
13    277.09527     0.53885     0.08243     0.00232     0.62360 
14    274.94873     0.53710     0.08413     0.00237     0.62360 
15    272.75791     0.53527     0.08591     0.00242     0.62360 
16    270.52074     0.53335     0.08777     0.00247     0.62360 
17    268.23497     0.53134     0.08973     0.00252     0.62360 
18    265.89821     0.52922     0.09179     0.00258     0.62360 
19    263.50784     0.52700     0.09396     0.00264     0.62360 
20    261.06108     0.52465     0.09624     0.00271     0.62360 
21    258.55490     0.52218     0.09865     0.00277     0.62360 
22    255.98600     0.51956     0.10119     0.00285     0.62360 
23    253.35084     0.51679     0.10388     0.00292     0.62360 
24    250.64551     0.51385     0.10674     0.00300     0.62360 
25    247.86580     0.51073     0.10978     0.00309     0.62360 
26    245.00706     0.50741     0.11301     0.00318     0.62360 
27    242.06422     0.50387     0.11645     0.00328     0.62360 
28    239.03168     0.50009     0.12013     0.00338     0.62360 
29    235.90327     0.49603     0.12407     0.00349     0.62360 
30    232.67217     0.49168     0.12831     0.00361     0.62360 
31    229.33081     0.48699     0.13287     0.00374     0.62360 
32    225.87073     0.48193     0.13779     0.00388     0.62360 
33    222.28251     0.47645     0.14311     0.00403     0.62360 
34    218.55556     0.47051     0.14890     0.00419     0.62360 
35    214.67794     0.46403     0.15520     0.00437     0.62360 
36    210.63615     0.45694     0.16210     0.00456     0.62360 
37    206.41486     0.44916     0.16966     0.00477     0.62360 
38    201.99654     0.44059     0.17800     0.00501     0.62360 
39    197.36112     0.43110     0.18723     0.00527     0.62360 
40    192.48547     0.42056     0.19748     0.00555     0.62360 
41    187.34279     0.40879     0.20893     0.00588     0.62360 
42    181.90197     0.39559     0.22177     0.00624     0.62360 
43    176.12667     0.38070     0.23625     0.00665     0.62360 
44    169.97435     0.36385     0.25264     0.00711     0.62360 
45    163.39514     0.34469     0.27128     0.00763     0.62360 
46    156.33064     0.32284     0.29253     0.00823     0.62360 
47    148.71277     0.29790     0.31678     0.00891     0.62360 
48    140.46318     0.26948     0.34442     0.00969     0.62360 
49    131.49383     0.23733     0.37569     0.01057     0.62360 
50    121.71015     0.20151     0.41054     0.01155     0.62360 
51    111.01901 
